 16 Solute 1
D (um)  K (mmHg.um.s/um3O2)
    4           2.45
    5           2.00
    6           1.74
    8           1.44
   10           1.27
   12           1.16
   14           1.08
   16           1.02
   18           0.974
   20           0.935
   22           0.895
   24           0.853
   28           0.815
   32           0.779
   40           0.750
   50           0.730
 1 Solute 2
D (um)  	K (s/um)
   10           0.1
 0 Solute 3
 0 Solute 4